# M_{ee}  dN/dM(GeV/c^2)(a)    (b)    (c)    (d)
0.025 0.000453762 0.000496494 0.000557453 0.000575159
0.075 0.00130644 0.00143535 0.00161108 0.00166015
0.125 0.00208803 0.0022945 0.0025707 0.00264677
0.175 0.00280696 0.0030847 0.00343829 0.00353868
0.225 0.00346942 0.00380615 0.0042185 0.00433875
0.275 0.00409354 0.00447419 0.00492379 0.005061
0.325 0.00469451 0.00510953 0.00557576 0.00573644
0.375 0.00530854 0.00575206 0.00622614 0.00640366
0.425 0.00602845 0.00647763 0.00697146 0.00717628
0.475 0.00678193 0.00722477 0.00773883 0.00796417
0.525 0.00739413 0.00781526 0.00831502 0.00855738
0.575 0.00778115 0.00816969 0.00865164 0.00889073
0.625 0.00795847 0.00828688 0.00873124 0.00894244
0.675 0.00792544 0.00820151 0.0085733 0.0087507
0.725 0.00772129 0.00794017 0.00823472 0.00836462
0.775 0.00740085 0.00754845 0.00775443 0.0078392
0.825 0.00698011 0.00708302 0.0071845 0.00722385
0.875 0.00651429 0.0065445 0.00657021 0.00656924
0.925 0.00601912 0.00599931 0.00594165 0.00591086
0.975 0.0055017 0.00544511 0.00532701 0.00526139
1.025 0.00500905 0.00491884 0.0047332 0.00464768
1.075 0.00453164 0.00440649 0.00418319 0.00408056
1.125 0.00408913 0.00392931 0.00368007 0.00356398
1.175 0.0036768 0.00350163 0.00322274 0.00310065
1.225 0.00329363 0.00310483 0.0028126 0.00269004
1.275 0.00294348 0.00274522 0.00244783 0.00232519
1.325 0.00262532 0.00242687 0.00212641 0.00200199
1.375 0.00233842 0.00213512 0.00184128 0.00172225
1.425 0.00208663 0.00187622 0.00159332 0.0014793
1.475 0.0018572 0.00165516 0.001377 0.00127119
1.525 0.00165101 0.00145162 0.00119187 0.00108765
1.575 0.00146787 0.00127389 0.00102578 0.000931478
1.625 0.0013023 0.00111631 0.000884876 0.000795315
1.675 0.00115997 0.000980244 0.000761297 0.000679901
1.725 0.00102902 0.000856747 0.00065705 0.000582614
1.775 0.000918973 0.000750283 0.000566085 0.000498995
1.825 0.00081485 0.000662388 0.000490659 0.000426489
1.875 0.00072246 0.000578233 0.000420916 0.000364989
1.925 0.000644969 0.000508094 0.000364698 0.000311818
1.975 0.000574221 0.000445113 0.000314892 0.000266092
2.025 0.000509575 0.000390664 0.000270757 0.000229235
2.075 0.000454657 0.000342534 0.00023509 0.000195556
2.125 0.000403972 0.000301659 0.00020313 0.000166337
2.175 0.000361642 0.000265656 0.000174048 0.000142613
2.225 0.000321457 0.000233569 0.000150681 0.0001231
2.275 0.000288154 0.000205465 0.000130266 0.000105338
2.325 0.000257115 0.000181216 0.000113987 9.02278e-05
2.375 0.000230086 0.000159936 9.83429e-05 7.69346e-05
2.425 0.000205774 0.000140912 8.54917e-05 6.6031e-05
2.475 0.000183733 0.000124659 7.39274e-05 5.63518e-05
2.525 0.000164269 0.000109951 6.3774e-05 4.8312e-05
2.575 0.000148153 9.66139e-05 5.53858e-05 4.22682e-05
2.625 0.000131769 8.58575e-05 4.78041e-05 3.64625e-05
2.675 0.000118957 7.61743e-05 4.22109e-05 3.14496e-05
2.725 0.000106508 6.74596e-05 3.69404e-05 2.71948e-05
2.775 9.6932e-05 5.97307e-05 3.21464e-05 2.34367e-05
2.825 8.69151e-05 5.31648e-05 2.81912e-05 2.01267e-05
2.875 7.78645e-05 4.70323e-05 2.44486e-05 1.71644e-05
2.925 7.04071e-05 4.19548e-05 2.11359e-05 1.50897e-05
2.975 6.24264e-05 3.70417e-05 1.85155e-05 1.30826e-05
3.025 5.65634e-05 3.29496e-05 1.63354e-05 1.14211e-05
3.075 5.12961e-05 2.96983e-05 1.42838e-05 1.0124e-05
3.125 4.65172e-05 2.6383e-05 1.24724e-05 8.67243e-06
3.175 4.18108e-05 2.37378e-05 1.10723e-05 7.47058e-06
3.225 3.79773e-05 2.07769e-05 9.90773e-06 6.47905e-06
3.275 3.38918e-05 1.8786e-05 8.58256e-06 5.54604e-06
3.325 3.08266e-05 1.69426e-05 7.70347e-06 4.81361e-06
3.375 2.78766e-05 1.5223e-05 6.70552e-06 4.21675e-06
3.425 2.52605e-05 1.35857e-05 5.80986e-06 3.786e-06
3.475 2.28041e-05 1.20209e-05 5.08785e-06 3.28991e-06
3.525 2.05687e-05 1.08322e-05 4.57422e-06 2.89168e-06
3.575 1.8953e-05 1.00553e-05 3.99113e-06 2.58544e-06
3.625 1.71949e-05 8.97137e-06 3.58871e-06 2.18331e-06
3.675 1.55756e-05 7.96469e-06 3.13657e-06 1.9746e-06
3.725 1.39943e-05 7.2197e-06 2.80839e-06 1.6378e-06
3.775 1.29868e-05 6.70864e-06 2.5691e-06 1.5276e-06
3.825 1.16755e-05 5.84231e-06 2.27086e-06 1.27273e-06
3.875 1.06285e-05 5.20671e-06 2.05738e-06 1.14692e-06
3.925 9.81746e-06 4.74417e-06 1.73652e-06 9.93151e-07
3.975 8.74969e-06 4.33218e-06 1.55682e-06 8.4621e-07
4.025 8.20203e-06 3.97953e-06 1.43383e-06 7.33079e-07
4.075 7.50284e-06 3.59056e-06 1.24106e-06 6.34251e-07
4.125 6.76277e-06 3.29194e-06 1.10755e-06 5.95891e-07
4.175 6.26067e-06 3.02453e-06 9.99217e-07 4.95113e-07
4.225 5.84602e-06 2.66621e-06 8.64756e-07 4.5025e-07
4.275 5.09826e-06 2.44397e-06 7.70442e-07 3.98561e-07
4.325 4.79843e-06 2.22101e-06 6.52231e-07 3.12087e-07
4.375 4.41049e-06 2.08613e-06 5.84364e-07 2.86079e-07
4.425 3.95513e-06 1.75661e-06 5.3179e-07 2.60722e-07
4.475 3.67124e-06 1.60778e-06 4.61692e-07 2.1521e-07
